,Wavelength (nm),Absorption (/cm)
0,300,0.000382
1,301,0.0003715
2,302,0.000361
3,303,0.00035099999999999997
4,304,0.000341
5,305,0.000332
6,306,0.000323
7,307,0.000314
8,308,0.000305
9,309,0.0002965
10,310,0.000288
11,311,0.00028
12,312,0.000272
13,313,0.0002645
14,314,0.000257
15,315,0.0002495
16,316,0.000242
17,317,0.00023500000000000002
18,318,0.000228
19,319,0.00022150000000000002
20,320,0.000215
21,321,0.00020899999999999998
22,322,0.000203
23,323,0.00019700000000000002
24,324,0.000191
25,325,0.0001855
26,326,0.00018
27,327,0.00017500000000000003
28,328,0.00017
29,329,0.000165
30,330,0.00016
31,331,0.0001555
32,332,0.000151
33,333,0.0001465
34,334,0.000142
35,335,0.000138
36,336,0.000134
37,337,0.0001305
38,338,0.000127
39,339,0.000123
40,340,0.000119
41,341,0.000116
42,342,0.000113
43,343,0.00010999999999999999
44,344,0.000107
45,345,0.00010400000000000001
46,346,0.000101
47,347,9.850000000000001e-05
48,348,9.6e-05
49,349,9.35e-05
50,350,9.1e-05
51,351,8.850000000000001e-05
52,352,8.6e-05
53,353,8.400000000000001e-05
54,354,8.2e-05
55,355,7.999999999999999e-05
56,356,7.8e-05
57,357,7.649999999999999e-05
58,358,7.5e-05
59,359,7.3e-05
60,360,7.1e-05
61,361,7e-05
62,362,6.9e-05
63,363,6.75e-05
64,364,6.6e-05
65,365,6.500000000000001e-05
66,366,6.4e-05
67,367,6.3e-05
68,368,6.2e-05
69,369,6.1000000000000005e-05
70,370,6e-05
71,371,5.9e-05
72,372,5.8e-05
73,373,5.75e-05
74,374,5.7e-05
75,375,5.6500000000000005e-05
76,376,5.6e-05
77,377,5.55e-05
78,378,5.5e-05
79,379,5.4499999999999997e-05
80,380,5.4e-05
81,381,5.4e-05
82,382,5.4e-05
83,383,5.35e-05
84,384,5.3e-05
85,385,5.3e-05
86,386,5.3e-05
87,387,5.3e-05
88,388,5.3e-05
89,389,5.35e-05
90,390,5.4e-05
91,391,5.4e-05
92,392,5.4e-05
93,393,5.4e-05
94,394,5.4e-05
95,395,5.4499999999999997e-05
96,396,5.5e-05
97,397,5.55e-05
98,398,5.6e-05
99,399,5.7e-05
100,400,5.8e-05
101,401,5.85e-05
102,402,5.9e-05
103,403,5.9999999999999995e-05
104,404,6.1e-05
105,405,6.2e-05
106,406,6.3e-05
107,407,6.4e-05
108,408,6.5e-05
109,409,6.6e-05
110,410,6.7e-05
111,411,6.8e-05
112,412,6.9e-05
113,413,7.05e-05
114,414,7.2e-05
115,415,7.3e-05
116,416,7.4e-05
117,417,7.500000000000001e-05
118,418,7.6e-05
119,419,7.75e-05
120,420,7.9e-05
121,421,8.05e-05
122,422,8.2e-05
123,423,8.3e-05
124,424,8.4e-05
125,425,8.549999999999999e-05
126,426,8.7e-05
127,427,8.8e-05
128,428,8.9e-05
129,429,9.05e-05
130,430,9.2e-05
131,431,9.3e-05
132,432,9.4e-05
133,433,9.549999999999999e-05
134,434,9.7e-05
135,435,9.8e-05
136,436,9.9e-05
137,437,0.0001005
138,438,0.000102
139,439,0.000103
140,440,0.000104
141,441,0.000105
142,442,0.000106
143,443,0.000107
144,444,0.000108
145,445,0.00010899999999999999
146,446,0.00011
147,447,0.000111
148,448,0.000112
149,449,0.00011300000000000001
150,450,0.000114
151,451,0.000115
152,452,0.000116
153,453,0.000117
154,454,0.000118
155,455,0.00011899999999999999
156,456,0.00012
157,457,0.000121
158,458,0.000122
159,459,0.000123
160,460,0.000124
161,461,0.000125
162,462,0.000126
163,463,0.000127
164,464,0.000128
165,465,0.000129
166,466,0.00013
167,467,0.0001315
168,468,0.000133
169,469,0.000134
170,470,0.000135
171,471,0.0001365
172,472,0.000138
173,473,0.0001395
174,474,0.000141
175,475,0.0001425
176,476,0.000144
177,477,0.000146
178,478,0.000148
179,479,0.00015000000000000001
180,480,0.000152
181,481,0.00015450000000000001
182,482,0.000157
183,483,0.0001595
184,484,0.000162
185,485,0.0001645
186,486,0.000167
187,487,0.0001705
188,488,0.000174
189,489,0.0001775
190,490,0.000181
191,491,0.000185
192,492,0.000189
193,493,0.0001935
194,494,0.000198
195,495,0.0002035
196,496,0.000209
197,497,0.000216
198,498,0.000223
199,499,0.00023050000000000002
200,500,0.000238
201,501,0.00024650000000000003
202,502,0.000255
203,503,0.000264
204,504,0.000273
205,505,0.000282
206,506,0.000291
207,507,0.0003005
208,508,0.00031
209,509,0.0003195
210,510,0.000329
211,511,0.000339
212,512,0.000349
213,513,0.0003585
214,514,0.000368
215,515,0.000377
216,516,0.000386
217,517,0.000395
218,518,0.000404
219,519,0.0004065
220,520,0.000409
221,521,0.0004125
222,522,0.000416
223,523,0.0004125
224,524,0.000409
225,525,0.000418
226,526,0.000427
227,527,0.00042500000000000003
228,528,0.000423
229,529,0.000426
230,530,0.000429
231,531,0.000437
232,532,0.000445
233,533,0.0004505
234,534,0.000456
235,535,0.000463
236,536,0.00047
237,537,0.000475
238,538,0.00048
239,539,0.0004875
240,540,0.000495
241,541,0.000499
242,542,0.000503
243,543,0.000515
244,544,0.000527
245,545,0.0005355
246,546,0.000544
247,547,0.000554
248,548,0.000564
249,549,0.000576
250,550,0.000588
251,551,0.0005995
252,552,0.000611
253,553,0.000621
254,554,0.000631
255,555,0.0006385
256,556,0.000646
257,557,0.000652
258,558,0.000658
259,559,0.000665
260,560,0.000672
261,561,0.0006789999999999999
262,562,0.000686
263,563,0.0006925
264,564,0.000699
265,565,0.0007084999999999999
266,566,0.000718
267,567,0.000726
268,568,0.000734
269,569,0.0007465
270,570,0.000759
271,571,0.000773
272,572,0.000787
273,573,0.000803
274,574,0.000819
275,575,0.0008385
276,576,0.000858
277,577,0.000877
278,578,0.000896
279,579,0.000924
280,580,0.000952
281,581,0.0009760000000000001
282,582,0.001
283,583,0.0010395
284,584,0.001079
285,585,0.0011190000000000002
286,586,0.001159
287,587,0.001206
288,588,0.001253
289,589,0.0013045
290,590,0.001356
291,591,0.0014075
292,592,0.001459
293,593,0.001513
294,594,0.001567
295,595,0.0016335
296,596,0.0017
297,597,0.00178
298,598,0.00186
299,599,0.002042
300,600,0.002224
301,601,0.002295
302,602,0.002366
303,603,0.0024070000000000003
304,604,0.002448
305,605,0.0025174999999999998
306,606,0.002587
307,607,0.00262
308,608,0.002653
309,609,0.002672
310,610,0.002691
311,611,0.0027029999999999997
312,612,0.002715
313,613,0.0027275
314,614,0.00274
315,615,0.002752
316,616,0.002764
317,617,0.0027745
318,618,0.002785
319,619,0.0027975
320,620,0.00281
321,621,0.0028244999999999998
322,622,0.002839
323,623,0.0028535
324,624,0.002868
325,625,0.0028805000000000002
326,626,0.002893
327,627,0.0029075000000000004
328,628,0.002922
329,629,0.0029385
330,630,0.002955
331,631,0.0029715
332,632,0.002988
333,633,0.0029995
334,634,0.003011
335,635,0.0030245
336,636,0.003038
337,637,0.003057
338,638,0.003076
339,639,0.0030935
340,640,0.003111
341,641,0.0031275
342,642,0.003144
343,643,0.0031625
344,644,0.003181
345,645,0.003202
346,646,0.003223
347,647,0.0032430000000000002
348,648,0.003263
349,649,0.003289
350,650,0.003315
351,651,0.0033385
352,652,0.003362
353,653,0.0033924999999999997
354,654,0.003423
355,655,0.0034655
356,656,0.003508
357,657,0.0035719999999999997
358,658,0.003636
359,659,0.0037135
360,660,0.003791
361,661,0.003861
362,662,0.003931
363,663,0.003974999999999999
364,664,0.004019
365,665,0.0040455000000000005
366,666,0.004072
367,667,0.004085
368,668,0.004098
369,669,0.00411
370,670,0.004122
371,671,0.004136
372,672,0.00415
373,673,0.0041615
374,674,0.004173
375,675,0.004198
376,676,0.004223
377,677,0.0042465
378,678,0.00427
379,679,0.004294
380,680,0.004318
381,681,0.0043495
382,682,0.004381
383,683,0.0044195
384,684,0.004458
385,685,0.0045015
386,686,0.004545
387,687,0.004595500000000001
388,688,0.004646
389,689,0.004703000000000001
390,690,0.00483
391,691,0.004949083333333333
392,692,0.005068166666666667
393,693,0.0051935
394,694,0.005318833333333333
395,695,0.005445416666666667
396,696,0.0055720000000000006
397,697,0.0057118333333333335
398,698,0.0058516666666666665
399,699,0.005998
400,700,0.006144333333333333
401,701,0.006295916666666667
402,702,0.0064475
403,703,0.006645333333333333
404,704,0.006843166666666666
405,705,0.007045249999999999
406,706,0.007247333333333333
407,707,0.007459416666666667
408,708,0.0076714999999999995
409,709,0.007897833333333333
410,710,0.008124166666666667
411,711,0.0083645
412,712,0.008604833333333332
413,713,0.008863666666666666
414,714,0.009122499999999999
415,715,0.009452136363636364
416,716,0.009781772727272727
417,717,0.010135909090909091
418,718,0.010490045454545453
419,719,0.010866931818181817
420,720,0.011243818181818181
421,721,0.011646204545454546
422,722,0.012048590909090908
423,723,0.012463477272727274
424,724,0.012878363636363636
425,725,0.01330075
426,726,0.014079500000000002
427,727,0.014887250000000001
428,728,0.015695
429,729,0.01655025
430,730,0.0174055
431,731,0.018340750000000003
432,732,0.019276
433,733,0.020307250000000002
434,734,0.021338500000000003
435,735,0.02239775
436,736,0.023105181818181816
437,737,0.023740363636363636
438,738,0.024375545454545455
439,739,0.024887977272727273
440,740,0.02540040909090909
441,741,0.025796590909090908
442,742,0.026192772727272728
443,743,0.026483954545454547
444,744,0.026775136363636362
445,745,0.02701781818181818
446,746,0.0272605
447,747,0.02735925
448,748,0.027458
449,749,0.0275375
450,750,0.027617000000000003
451,751,0.027686750000000003
452,752,0.0277565
453,753,0.02769775
454,754,0.027638999999999997
455,755,0.02758
456,756,0.027521
457,757,0.0274675
458,758,0.027414
459,759,0.027339045454545453
460,760,0.027264090909090908
461,761,0.027174386363636362
462,762,0.02708468181818182
463,763,0.02699147727272727
464,764,0.02689827272727273
465,765,0.02679256818181818
466,766,0.026686863636363637
467,767,0.02656865909090909
468,768,0.026450454545454548
469,769,0.026338
470,770,0.0262335
471,771,0.026131
472,772,0.0260285
473,773,0.025896750000000003
474,774,0.025765
475,775,0.025625500000000002
476,776,0.025486
477,777,0.02534825
478,778,0.0252105
479,779,0.0250465
480,780,0.024882500000000002
481,781,0.0247305
482,782,0.024589076923076922
483,783,0.024444653846153845
484,784,0.02430023076923077
485,785,0.02413330769230769
486,786,0.023966384615384615
487,787,0.02379771153846154
488,788,0.023629038461538462
489,789,0.023449365384615384
490,790,0.02326969230769231
491,791,0.023082019230769232
492,792,0.022894346153846154
493,793,0.022717923076923077
494,794,0.0225415
495,795,0.02239375
496,796,0.022246000000000002
497,797,0.022081
498,798,0.021915999999999998
499,799,0.021753500000000002
500,800,0.021591
501,801,0.020125
502,802,0.02
503,803,0.019875
504,804,0.01975
505,805,0.019625
506,806,0.0195
507,807,0.019442857142857144
508,808,0.019385714285714284
509,809,0.019328571428571428
510,810,0.01927142857142857
511,811,0.019214285714285715
512,812,0.019157142857142855
513,813,0.0191
514,814,0.019214285714285715
515,815,0.019328571428571428
516,816,0.019442857142857144
517,817,0.019557142857142856
518,818,0.019671428571428572
519,819,0.019785714285714285
520,820,0.0199
521,821,0.02073846153846154
522,822,0.021576923076923077
523,823,0.022415384615384615
524,824,0.023253846153846156
525,825,0.024092307692307694
526,826,0.024930769230769232
527,827,0.02576923076923077
528,828,0.026607692307692308
529,829,0.02744615384615385
530,830,0.028284615384615387
531,831,0.029123076923076925
532,832,0.029961538461538463
533,833,0.0308
534,834,0.03136428571428571
535,835,0.03192857142857143
536,836,0.03249285714285714
537,837,0.033057142857142854
538,838,0.03362142857142857
539,839,0.034185714285714285
540,840,0.03475
541,841,0.035314285714285715
542,842,0.035878571428571426
543,843,0.036442857142857145
544,844,0.037007142857142857
545,845,0.03757142857142857
546,846,0.03813571428571429
547,847,0.0387
548,848,0.03897333333333333
549,849,0.039246666666666666
550,850,0.03952
551,851,0.03979333333333333
552,852,0.04006666666666667
553,853,0.04034
554,854,0.040613333333333335
555,855,0.04088666666666666
556,856,0.041159999999999995
557,857,0.04143333333333333
558,858,0.04170666666666666
559,859,0.041979999999999996
560,860,0.04225333333333333
561,861,0.042526666666666664
562,862,0.0428
563,863,0.04332
564,864,0.04384
565,865,0.04436
566,866,0.044879999999999996
567,867,0.045399999999999996
568,868,0.045919999999999996
569,869,0.046439999999999995
570,870,0.04696
571,871,0.047479999999999994
572,872,0.048
573,873,0.04852
574,874,0.04904
575,875,0.04956
576,876,0.05008
577,877,0.0506
578,878,0.05124375
579,879,0.0518875
580,880,0.05253125
581,881,0.053175
582,882,0.05381875
583,883,0.0544625
584,884,0.05510625
585,885,0.05575
586,886,0.05639375
587,887,0.057037500000000005
588,888,0.05768125
589,889,0.058325
590,890,0.05896875
591,891,0.0596125
592,892,0.060256250000000004
593,893,0.0609
594,894,0.06178125
595,895,0.0626625
596,896,0.06354375
597,897,0.064425
598,898,0.06530625
599,899,0.0661875
600,900,0.06706875
601,901,0.06795
602,902,0.06883125
603,903,0.0697125
604,904,0.07059375
605,905,0.071475
606,906,0.07235625
607,907,0.0732375
608,908,0.07411875
609,909,0.075
610,910,0.07758823529411764
611,911,0.0801764705882353
612,912,0.08276470588235293
613,913,0.08535294117647059
614,914,0.08794117647058823
615,915,0.09052941176470589
616,916,0.09311764705882353
617,917,0.09570588235294117
618,918,0.09829411764705882
619,919,0.10088235294117646
620,920,0.10347058823529412
621,921,0.10605882352941176
622,922,0.1086470588235294
623,923,0.11123529411764704
624,924,0.1138235294117647
625,925,0.11641176470588235
626,926,0.119
627,927,0.12333333333333332
628,928,0.12766666666666665
629,929,0.132
630,930,0.13633333333333333
631,931,0.14066666666666666
632,932,0.145
633,933,0.14933333333333332
634,934,0.15366666666666667
635,935,0.158
636,936,0.165
637,937,0.172
638,938,0.179
639,939,0.186
640,940,0.193
641,941,0.2
642,942,0.207
643,943,0.214
644,944,0.226
645,945,0.238
646,946,0.25
647,947,0.262
648,948,0.274
649,949,0.28600000000000003
650,950,0.29800000000000004
651,951,0.31
652,952,0.322
653,953,0.3369
654,954,0.3518
655,955,0.3667
656,956,0.3816
657,957,0.39649999999999996
658,958,0.4114
659,959,0.4263
660,960,0.4412
661,961,0.45609999999999995
662,962,0.471
663,963,0.4749090909090909
664,964,0.4788181818181818
665,965,0.4827272727272727
666,966,0.48663636363636364
667,967,0.4905454545454545
668,968,0.4944545454545454
669,969,0.49836363636363634
670,970,0.5022727272727273
671,971,0.5061818181818182
672,972,0.5100909090909092
673,973,0.514
674,974,0.5122857142857143
675,975,0.5105714285714286
676,976,0.5088571428571429
677,977,0.5071428571428571
678,978,0.5054285714285714
679,979,0.5037142857142857
680,980,0.502
681,981,0.4987
682,982,0.4954
683,983,0.4921
684,984,0.4888
685,985,0.4855
686,986,0.48219999999999996
687,987,0.4789
688,988,0.47559999999999997
689,989,0.4723
690,990,0.469
691,991,0.4637
692,992,0.4584
693,993,0.45309999999999995
694,994,0.4478
695,995,0.4425
696,996,0.4372
697,997,0.43189999999999995
698,998,0.4266
699,999,0.4213
700,1000,0.416
701,1001,0.4095
702,1002,0.40299999999999997
703,1003,0.39649999999999996
704,1004,0.38999999999999996
705,1005,0.38349999999999995
706,1006,0.377
707,1007,0.3705
708,1008,0.364
709,1009,0.3575
710,1010,0.351
711,1011,0.3444
712,1012,0.3378
713,1013,0.3312
714,1014,0.3246
715,1015,0.31799999999999995
716,1016,0.3114
717,1017,0.30479999999999996
718,1018,0.29819999999999997
719,1019,0.29159999999999997
720,1020,0.285
721,1021,0.28009090909090906
722,1022,0.27518181818181814
723,1023,0.2702727272727273
724,1024,0.26536363636363636
725,1025,0.26045454545454544
726,1026,0.2555454545454545
727,1027,0.25063636363636366
728,1028,0.24572727272727274
729,1029,0.24081818181818182
730,1030,0.23590909090909093
731,1031,0.231
732,1032,0.2272727272727273
733,1033,0.22354545454545455
734,1034,0.21981818181818183
735,1035,0.2160909090909091
736,1036,0.21236363636363637
737,1037,0.20863636363636365
738,1038,0.20490909090909093
739,1039,0.20118181818181818
740,1040,0.19745454545454547
741,1041,0.19372727272727275
742,1042,0.19
743,1043,0.18763636363636363
744,1044,0.18527272727272728
745,1045,0.1829090909090909
746,1046,0.18054545454545454
747,1047,0.1781818181818182
748,1048,0.17581818181818182
749,1049,0.17345454545454547
750,1050,0.1710909090909091
751,1051,0.16872727272727273
752,1052,0.16636363636363638
753,1053,0.164
754,1054,0.16305882352941178
755,1055,0.16211764705882353
756,1056,0.1611764705882353
757,1057,0.16023529411764706
758,1058,0.15929411764705884
759,1059,0.15835294117647059
760,1060,0.15741176470588236
761,1061,0.1564705882352941
762,1062,0.1555294117647059
763,1063,0.15458823529411764
764,1064,0.15364705882352941
765,1065,0.15270588235294116
766,1066,0.15176470588235294
767,1067,0.1508235294117647
768,1068,0.14988235294117647
769,1069,0.14894117647058824
770,1070,0.148
771,1071,0.14905882352941177
772,1072,0.15011764705882352
773,1073,0.1511764705882353
774,1074,0.15223529411764705
775,1075,0.15329411764705883
776,1076,0.15435294117647058
777,1077,0.15541176470588236
778,1078,0.1564705882352941
779,1079,0.1575294117647059
780,1080,0.15858823529411764
781,1081,0.15964705882352942
782,1082,0.16070588235294117
783,1083,0.16176470588235295
784,1084,0.1628235294117647
785,1085,0.16388235294117648
786,1086,0.16494117647058826
787,1087,0.166
788,1088,0.1681666666666667
789,1089,0.17033333333333334
790,1090,0.17250000000000001
791,1091,0.17466666666666666
792,1092,0.17683333333333334
793,1093,0.179
794,1094,0.18116666666666667
795,1095,0.18333333333333335
796,1096,0.1855
797,1097,0.18766666666666668
798,1098,0.18983333333333333
799,1099,0.192
800,1100,0.19533333333333333
801,1101,0.19866666666666666
802,1102,0.202
803,1103,0.20533333333333334
804,1104,0.20866666666666667
805,1105,0.21200000000000002
806,1106,0.21533333333333335
807,1107,0.21866666666666668
808,1108,0.222
809,1109,0.22533333333333333
810,1110,0.22866666666666668
811,1111,0.232
812,1112,0.23900000000000002
813,1113,0.24600000000000002
814,1114,0.253
815,1115,0.26
816,1116,0.267
817,1117,0.274
818,1118,0.281
819,1119,0.28800000000000003
820,1120,0.29500000000000004
821,1121,0.30200000000000005
822,1122,0.309
823,1123,0.316
824,1124,0.323
825,1125,0.34175
826,1126,0.36050000000000004
827,1127,0.37925000000000003
828,1128,0.398
829,1129,0.41675
830,1130,0.4355
831,1131,0.45425000000000004
832,1132,0.47300000000000003
833,1133,0.49175
834,1134,0.5105000000000001
835,1135,0.52925
836,1136,0.548
837,1137,0.5804615384615385
838,1138,0.6129230769230769
839,1139,0.6453846153846154
840,1140,0.6778461538461539
841,1141,0.7103076923076923
842,1142,0.7427692307692308
843,1143,0.7752307692307693
844,1144,0.8076923076923077
845,1145,0.8401538461538461
846,1146,0.8726153846153846
847,1147,0.9050769230769231
848,1148,0.9375384615384615
849,1149,0.97
850,1150,0.985
851,1151,1.0
852,1152,1.015
853,1153,1.03
854,1154,1.045
855,1155,1.06
856,1156,1.075
857,1157,1.0899999999999999
858,1158,1.105
859,1159,1.1199999999999999
860,1160,1.135
861,1161,1.15
862,1162,1.165
863,1163,1.18
864,1164,1.1838461538461538
865,1165,1.1876923076923076
866,1166,1.1915384615384614
867,1167,1.1953846153846153
868,1168,1.199230769230769
869,1169,1.203076923076923
870,1170,1.206923076923077
871,1171,1.2107692307692308
872,1172,1.2146153846153847
873,1173,1.2184615384615385
874,1174,1.2223076923076923
875,1175,1.2261538461538461
876,1176,1.23
877,1177,1.2314285714285713
878,1178,1.2328571428571429
879,1179,1.2342857142857142
880,1180,1.2357142857142858
881,1181,1.237142857142857
882,1182,1.2385714285714287
883,1183,1.24
884,1184,1.2414285714285713
885,1185,1.2428571428571429
886,1186,1.2442857142857142
887,1187,1.2457142857142858
888,1188,1.247142857142857
889,1189,1.2485714285714287
890,1190,1.25
891,1191,1.25
892,1192,1.25
893,1193,1.25
894,1194,1.25
895,1195,1.25
896,1196,1.25
897,1197,1.25
898,1198,1.25
899,1199,1.25
900,1200,1.25
901,1201,1.25
902,1202,1.25
903,1203,1.25
904,1204,1.25
905,1205,1.25
906,1206,1.248
907,1207,1.246
908,1208,1.244
909,1209,1.242
910,1210,1.24
911,1211,1.238
912,1212,1.236
913,1213,1.234
914,1214,1.232
915,1215,1.23
916,1216,1.228
917,1217,1.226
918,1218,1.224
919,1219,1.222
920,1220,1.22
921,1221,1.2166666666666666
922,1222,1.2133333333333334
923,1223,1.21
924,1224,1.2066666666666666
925,1225,1.2033333333333334
926,1226,1.2
927,1227,1.1966666666666665
928,1228,1.1933333333333334
929,1229,1.19
930,1230,1.1866666666666665
931,1231,1.1833333333333333
932,1232,1.18
933,1233,1.1766666666666665
934,1234,1.1733333333333333
935,1235,1.17
936,1236,1.166
937,1237,1.162
938,1238,1.158
939,1239,1.154
940,1240,1.15
941,1241,1.146
942,1242,1.142
943,1243,1.1380000000000001
944,1244,1.1340000000000001
945,1245,1.1300000000000001
946,1246,1.1260000000000001
947,1247,1.122
948,1248,1.118
949,1249,1.114
950,1250,1.11
951,1251,1.1075000000000002
952,1252,1.105
953,1253,1.1025
954,1254,1.1
955,1255,1.0975000000000001
956,1256,1.0950000000000002
957,1257,1.0925
958,1258,1.09
959,1259,1.0875000000000001
960,1260,1.085
961,1261,1.0825
962,1262,1.08
963,1263,1.0775000000000001
964,1264,1.0750000000000002
965,1265,1.0725
966,1266,1.07
967,1267,1.07375
968,1268,1.0775000000000001
969,1269,1.08125
970,1270,1.085
971,1271,1.08875
972,1272,1.0925
973,1273,1.09625
974,1274,1.1
975,1275,1.10375
976,1276,1.1075
977,1277,1.1112499999999998
978,1278,1.115
979,1279,1.11875
980,1280,1.1224999999999998
981,1281,1.12625
982,1282,1.13
983,1283,1.1423529411764706
984,1284,1.154705882352941
985,1285,1.1670588235294117
986,1286,1.1794117647058824
987,1287,1.1917647058823528
988,1288,1.2041176470588235
989,1289,1.2164705882352942
990,1290,1.2288235294117646
991,1291,1.2411764705882353
992,1292,1.2535294117647058
993,1293,1.2658823529411765
994,1294,1.2782352941176471
995,1295,1.2905882352941176
996,1296,1.3029411764705883
997,1297,1.315294117647059
998,1298,1.3276470588235294
999,1299,1.34
1000,1300,1.3594117647058823
1001,1301,1.3788235294117648
1002,1302,1.398235294117647
1003,1303,1.4176470588235295
1004,1304,1.4370588235294117
1005,1305,1.4564705882352942
1006,1306,1.4758823529411764
1007,1307,1.4952941176470589
1008,1308,1.5147058823529411
1009,1309,1.5341176470588236
1010,1310,1.5535294117647058
1011,1311,1.5729411764705883
1012,1312,1.5923529411764705
1013,1313,1.611764705882353
1014,1314,1.6311764705882352
1015,1315,1.6505882352941175
1016,1316,1.67
1017,1317,1.7041176470588235
1018,1318,1.738235294117647
1019,1319,1.7723529411764705
1020,1320,1.806470588235294
1021,1321,1.8405882352941176
1022,1322,1.874705882352941
1023,1323,1.9088235294117646
1024,1324,1.9429411764705882
1025,1325,1.9770588235294118
1026,1326,2.0111764705882353
1027,1327,2.045294117647059
1028,1328,2.079411764705882
1029,1329,2.1135294117647057
1030,1330,2.1476470588235292
1031,1331,2.181764705882353
1032,1332,2.2158823529411764
1033,1333,2.25
1034,1334,2.34
1035,1335,2.43
1036,1336,2.52
1037,1337,2.61
1038,1338,2.7
1039,1339,2.79
1040,1340,2.88
1041,1341,2.97
1042,1342,3.06
1043,1343,3.1500000000000004
1044,1344,3.24
1045,1345,3.33
1046,1346,3.42
1047,1347,3.5100000000000002
1048,1348,3.6
1049,1349,3.6900000000000004
1050,1350,3.7800000000000002
1051,1351,3.87
1052,1352,3.9531578947368424
1053,1353,4.036315789473685
1054,1354,4.119473684210527
1055,1355,4.2026315789473685
1056,1356,4.28578947368421
1057,1357,4.368947368421053
1058,1358,4.452105263157895
1059,1359,4.535263157894737
1060,1360,4.618421052631579
1061,1361,4.7015789473684215
1062,1362,4.784736842105263
1063,1363,4.867894736842105
1064,1364,4.951052631578948
1065,1365,5.03421052631579
1066,1366,5.117368421052632
1067,1367,5.200526315789474
1068,1368,5.2836842105263155
1069,1369,5.366842105263158
1070,1370,5.45
1071,1371,5.643684210526316
1072,1372,5.8373684210526315
1073,1373,6.031052631578948
1074,1374,6.224736842105264
1075,1375,6.4184210526315795
1076,1376,6.612105263157895
1077,1377,6.805789473684211
1078,1378,6.9994736842105265
1079,1379,7.193157894736842
1080,1380,7.386842105263158
1081,1381,7.580526315789474
1082,1382,7.77421052631579
1083,1383,7.967894736842106
1084,1384,8.161578947368422
1085,1385,8.355263157894738
1086,1386,8.548947368421054
1087,1387,8.74263157894737
1088,1388,8.936315789473685
1089,1389,9.13
1090,1390,9.781052631578948
1091,1391,10.432105263157895
1092,1392,11.083157894736843
1093,1393,11.73421052631579
1094,1394,12.385263157894737
1095,1395,13.036315789473685
1096,1396,13.687368421052632
1097,1397,14.33842105263158
1098,1398,14.989473684210527
1099,1399,15.640526315789474
1100,1400,16.29157894736842
1101,1401,16.94263157894737
1102,1402,17.593684210526316
1103,1403,18.24473684210526
1104,1404,18.89578947368421
1105,1405,19.54684210526316
1106,1406,20.197894736842105
1107,1407,20.84894736842105
1108,1408,21.5
1109,1409,21.952380952380953
1110,1410,22.404761904761905
1111,1411,22.857142857142858
1112,1412,23.30952380952381
1113,1413,23.761904761904763
1114,1414,24.214285714285715
1115,1415,24.666666666666668
1116,1416,25.11904761904762
1117,1417,25.57142857142857
1118,1418,26.023809523809526
1119,1419,26.476190476190474
1120,1420,26.92857142857143
1121,1421,27.38095238095238
1122,1422,27.833333333333332
1123,1423,28.285714285714285
1124,1424,28.738095238095237
1125,1425,29.19047619047619
1126,1426,29.642857142857142
1127,1427,30.095238095238095
1128,1428,30.547619047619047
1129,1429,31.0
1130,1430,31.05
1131,1431,31.1
1132,1432,31.15
1133,1433,31.2
1134,1434,31.25
1135,1435,31.3
1136,1436,31.35
1137,1437,31.4
1138,1438,31.45
1139,1439,31.5
1140,1440,31.55
1141,1441,31.599999999999998
1142,1442,31.65
1143,1443,31.7
1144,1444,31.585714285714285
1145,1445,31.47142857142857
1146,1446,31.357142857142858
1147,1447,31.242857142857144
1148,1448,31.128571428571426
1149,1449,31.014285714285712
1150,1450,30.9
1151,1451,30.785714285714285
1152,1452,30.67142857142857
1153,1453,30.557142857142857
1154,1454,30.442857142857143
1155,1455,30.32857142857143
1156,1456,30.214285714285715
1157,1457,30.1
1158,1458,29.985714285714284
1159,1459,29.87142857142857
1160,1460,29.757142857142856
1161,1461,29.642857142857142
1162,1462,29.52857142857143
1163,1463,29.414285714285715
1164,1464,29.3
1165,1465,29.185714285714287
1166,1466,29.071428571428573
1167,1467,28.957142857142856
1168,1468,28.84285714285714
1169,1469,28.728571428571428
1170,1470,28.614285714285714
1171,1471,28.5
1172,1472,28.19090909090909
1173,1473,27.881818181818183
1174,1474,27.572727272727274
1175,1475,27.263636363636362
1176,1476,26.954545454545453
1177,1477,26.645454545454545
1178,1478,26.336363636363636
1179,1479,26.027272727272727
1180,1480,25.71818181818182
1181,1481,25.40909090909091
1182,1482,25.1
1183,1483,24.79090909090909
1184,1484,24.48181818181818
1185,1485,24.172727272727272
1186,1486,23.863636363636363
1187,1487,23.554545454545455
1188,1488,23.245454545454542
1189,1489,22.936363636363637
1190,1490,22.627272727272725
1191,1491,22.318181818181817
1192,1492,22.009090909090908
1193,1493,21.7
1194,1494,21.422727272727272
1195,1495,21.145454545454545
1196,1496,20.868181818181817
1197,1497,20.59090909090909
1198,1498,20.313636363636363
1199,1499,20.036363636363635
1200,1500,19.759090909090908
1201,1501,19.48181818181818
1202,1502,19.204545454545453
1203,1503,18.927272727272726
1204,1504,18.65
1205,1505,18.37272727272727
1206,1506,18.095454545454544
1207,1507,17.818181818181817
1208,1508,17.54090909090909
1209,1509,17.263636363636362
1210,1510,16.986363636363635
1211,1511,16.709090909090907
1212,1512,16.43181818181818
1213,1513,16.154545454545453
1214,1514,15.877272727272725
1215,1515,15.6
1216,1516,15.447826086956521
1217,1517,15.295652173913043
1218,1518,15.143478260869564
1219,1519,14.991304347826087
1220,1520,14.839130434782609
1221,1521,14.68695652173913
1222,1522,14.534782608695652
1223,1523,14.382608695652173
1224,1524,14.230434782608695
1225,1525,14.078260869565216
1226,1526,13.926086956521738
1227,1527,13.77391304347826
1228,1528,13.621739130434783
1229,1529,13.469565217391304
1230,1530,13.317391304347826
1231,1531,13.165217391304347
1232,1532,13.013043478260869
1233,1533,12.86086956521739
1234,1534,12.708695652173912
1235,1535,12.556521739130435
1236,1536,12.404347826086955
1237,1537,12.252173913043478
1238,1538,12.1
1239,1539,12.0032
1240,1540,11.9064
1241,1541,11.8096
1242,1542,11.7128
1243,1543,11.616
1244,1544,11.5192
1245,1545,11.4224
1246,1546,11.3256
1247,1547,11.2288
1248,1548,11.132
1249,1549,11.0352
1250,1550,10.9384
1251,1551,10.8416
1252,1552,10.7448
1253,1553,10.648
1254,1554,10.5512
1255,1555,10.4544
1256,1556,10.3576
1257,1557,10.2608
1258,1558,10.164
1259,1559,10.0672
1260,1560,9.9704
1261,1561,9.8736
1262,1562,9.7768
1263,1563,9.68
1264,1564,9.612916666666667
1265,1565,9.545833333333333
1266,1566,9.47875
1267,1567,9.411666666666667
1268,1568,9.344583333333333
1269,1569,9.2775
1270,1570,9.210416666666667
1271,1571,9.143333333333333
1272,1572,9.07625
1273,1573,9.009166666666667
1274,1574,8.942083333333333
1275,1575,8.875
1276,1576,8.807916666666667
1277,1577,8.740833333333333
1278,1578,8.67375
1279,1579,8.606666666666667
1280,1580,8.539583333333333
1281,1581,8.4725
1282,1582,8.405416666666667
1283,1583,8.338333333333333
1284,1584,8.27125
1285,1585,8.204166666666667
1286,1586,8.137083333333333
1287,1587,8.07
1288,1588,8.021153846153846
1289,1589,7.972307692307693
1290,1590,7.923461538461539
1291,1591,7.874615384615385
1292,1592,7.825769230769231
1293,1593,7.776923076923077
1294,1594,7.728076923076923
1295,1595,7.679230769230769
1296,1596,7.6303846153846155
1297,1597,7.581538461538462
1298,1598,7.532692307692308
1299,1599,7.483846153846154
1300,1600,7.4350000000000005
1301,1601,7.386153846153846
1302,1602,7.337307692307692
1303,1603,7.288461538461538
1304,1604,7.239615384615385
1305,1605,7.190769230769231
1306,1606,7.141923076923077
1307,1607,7.093076923076923
1308,1608,7.044230769230769
1309,1609,6.995384615384616
1310,1610,6.946538461538461
1311,1611,6.897692307692307
1312,1612,6.848846153846154
1313,1613,6.8
1314,1614,6.771923076923077
1315,1615,6.743846153846154
1316,1616,6.71576923076923
1317,1617,6.687692307692307
1318,1618,6.6596153846153845
1319,1619,6.631538461538462
1320,1620,6.603461538461539
1321,1621,6.575384615384615
1322,1622,6.547307692307692
1323,1623,6.519230769230769
1324,1624,6.491153846153846
1325,1625,6.463076923076923
1326,1626,6.4350000000000005
1327,1627,6.406923076923077
1328,1628,6.378846153846154
1329,1629,6.350769230769231
1330,1630,6.322692307692308
1331,1631,6.294615384615385
1332,1632,6.266538461538461
1333,1633,6.2384615384615385
1334,1634,6.210384615384616
1335,1635,6.182307692307693
1336,1636,6.15423076923077
1337,1637,6.126153846153846
1338,1638,6.098076923076923
1339,1639,6.07
1340,1640,6.055000000000001
1341,1641,6.04
1342,1642,6.025
1343,1643,6.010000000000001
1344,1644,5.995
1345,1645,5.98
1346,1646,5.965
1347,1647,5.95
1348,1648,5.9350000000000005
1349,1649,5.92
1350,1650,5.905
1351,1651,5.890000000000001
1352,1652,5.875
1353,1653,5.86
1354,1654,5.845000000000001
1355,1655,5.83
1356,1656,5.815
1357,1657,5.800000000000001
1358,1658,5.785
1359,1659,5.7700000000000005
1360,1660,5.755000000000001
1361,1661,5.74
1362,1662,5.7250000000000005
1363,1663,5.71
1364,1664,5.695
1365,1665,5.680000000000001
1366,1666,5.665
1367,1667,5.65
1368,1668,5.65
1369,1669,5.65
1370,1670,5.65
1371,1671,5.65
1372,1672,5.65
1373,1673,5.65
1374,1674,5.65
1375,1675,5.65
1376,1676,5.65
1377,1677,5.65
1378,1678,5.65
1379,1679,5.65
1380,1680,5.65
1381,1681,5.65
1382,1682,5.65
1383,1683,5.65
1384,1684,5.65
1385,1685,5.65
1386,1686,5.65
1387,1687,5.65
1388,1688,5.65
1389,1689,5.65
1390,1690,5.65
1391,1691,5.65
1392,1692,5.65
1393,1693,5.65
1394,1694,5.65
1395,1695,5.65
1396,1696,5.67
1397,1697,5.69
1398,1698,5.71
1399,1699,5.73
1400,1700,5.75
1401,1701,5.7700000000000005
1402,1702,5.79
1403,1703,5.8100000000000005
1404,1704,5.83
1405,1705,5.8500000000000005
1406,1706,5.87
1407,1707,5.890000000000001
1408,1708,5.91
1409,1709,5.930000000000001
1410,1710,5.95
1411,1711,5.970000000000001
1412,1712,5.99
1413,1713,6.010000000000001
1414,1714,6.03
1415,1715,6.050000000000001
1416,1716,6.07
1417,1717,6.090000000000001
1418,1718,6.11
1419,1719,6.130000000000001
1420,1720,6.15
1421,1721,6.170000000000001
1422,1722,6.19
1423,1723,6.210000000000001
1424,1724,6.23
1425,1725,6.275666666666667
1426,1726,6.3213333333333335
1427,1727,6.367
1428,1728,6.412666666666667
1429,1729,6.458333333333334
1430,1730,6.5040000000000004
1431,1731,6.549666666666667
1432,1732,6.5953333333333335
1433,1733,6.641
1434,1734,6.6866666666666665
1435,1735,6.732333333333333
1436,1736,6.7780000000000005
1437,1737,6.823666666666667
1438,1738,6.8693333333333335
1439,1739,6.915
1440,1740,6.960666666666667
1441,1741,7.006333333333333
1442,1742,7.052
1443,1743,7.097666666666667
1444,1744,7.1433333333333335
1445,1745,7.189
1446,1746,7.234666666666667
1447,1747,7.280333333333333
1448,1748,7.326
1449,1749,7.371666666666666
1450,1750,7.417333333333334
1451,1751,7.462999999999999
1452,1752,7.508666666666667
1453,1753,7.554333333333333
1454,1754,7.6
1455,1755,7.649375
1456,1756,7.6987499999999995
1457,1757,7.748125
1458,1758,7.797499999999999
1459,1759,7.846875
1460,1760,7.896249999999999
1461,1761,7.945625
1462,1762,7.994999999999999
1463,1763,8.044375
1464,1764,8.09375
1465,1765,8.143125
1466,1766,8.192499999999999
1467,1767,8.241875
1468,1768,8.29125
1469,1769,8.340625
1470,1770,8.39
1471,1771,8.439375
1472,1772,8.48875
1473,1773,8.538124999999999
1474,1774,8.5875
1475,1775,8.636875
1476,1776,8.68625
1477,1777,8.735624999999999
1478,1778,8.785
1479,1779,8.834375
1480,1780,8.88375
1481,1781,8.933125
1482,1782,8.9825
1483,1783,9.031875
1484,1784,9.08125
1485,1785,9.130625
1486,1786,9.18
1487,1787,9.19875
1488,1788,9.2175
1489,1789,9.23625
1490,1790,9.254999999999999
1491,1791,9.27375
1492,1792,9.2925
1493,1793,9.31125
1494,1794,9.33
1495,1795,9.34875
1496,1796,9.3675
1497,1797,9.38625
1498,1798,9.405000000000001
1499,1799,9.42375
1500,1800,9.4425
1501,1801,9.46125
1502,1802,9.48
1503,1803,9.477500000000001
1504,1804,9.475
1505,1805,9.4725
1506,1806,9.47
1507,1807,9.4675
1508,1808,9.465
1509,1809,9.4625
1510,1810,9.46
1511,1811,9.4575
1512,1812,9.455
1513,1813,9.4525
1514,1814,9.45
1515,1815,9.4475
1516,1816,9.445
1517,1817,9.442499999999999
1518,1818,9.44
1519,1819,9.48
1520,1820,9.52
1521,1821,9.559999999999999
1522,1822,9.6
1523,1823,9.64
1524,1824,9.68
1525,1825,9.719999999999999
1526,1826,9.76
1527,1827,9.8
1528,1828,9.84
1529,1829,9.879999999999999
1530,1830,9.92
1531,1831,9.96
1532,1832,10.0
1533,1833,10.04
1534,1834,10.08
1535,1835,10.120000000000001
1536,1836,10.16
1537,1837,10.2
1538,1838,10.24
1539,1839,10.280000000000001
1540,1840,10.32
1541,1841,10.36
1542,1842,10.4
1543,1843,10.440000000000001
1544,1844,10.48
1545,1845,10.52
1546,1846,10.56
1547,1847,10.600000000000001
1548,1848,10.64
1549,1849,10.68
1550,1850,10.72
1551,1851,10.760000000000002
1552,1852,10.8
1553,1853,12.134285714285715
1554,1854,13.46857142857143
1555,1855,14.802857142857142
1556,1856,16.13714285714286
1557,1857,17.47142857142857
1558,1858,18.805714285714288
1559,1859,20.14
1560,1860,21.474285714285713
1561,1861,22.80857142857143
1562,1862,24.142857142857146
1563,1863,25.47714285714286
1564,1864,26.81142857142857
1565,1865,28.145714285714288
1566,1866,29.48
1567,1867,30.814285714285717
1568,1868,32.14857142857143
1569,1869,33.48285714285714
1570,1870,34.817142857142855
1571,1871,36.15142857142857
1572,1872,37.48571428571429
1573,1873,38.82
1574,1874,40.15428571428572
1575,1875,41.48857142857143
1576,1876,42.822857142857146
1577,1877,44.15714285714286
1578,1878,45.49142857142857
1579,1879,46.825714285714284
1580,1880,48.16
1581,1881,49.49428571428571
1582,1882,50.828571428571436
1583,1883,52.16285714285715
1584,1884,53.49714285714286
1585,1885,54.831428571428575
1586,1886,56.16571428571429
1587,1887,57.5
1588,1888,59.1625
1589,1889,60.825
1590,1890,62.4875
1591,1891,64.15
1592,1892,65.8125
1593,1893,67.475
1594,1894,69.1375
1595,1895,70.8
1596,1896,72.4625
1597,1897,74.125
1598,1898,75.7875
1599,1899,77.45
1600,1900,79.1125
1601,1901,80.775
1602,1902,82.4375
1603,1903,84.1
1604,1904,85.7625
1605,1905,87.425
1606,1906,89.0875
1607,1907,90.75
1608,1908,92.4125
1609,1909,94.075
1610,1910,95.73750000000001
1611,1911,97.4
1612,1912,99.0625
1613,1913,100.725
1614,1914,102.3875
1615,1915,104.05000000000001
1616,1916,105.7125
1617,1917,107.375
1618,1918,109.0375
1619,1919,110.7
1620,1920,112.36250000000001
1621,1921,114.025
1622,1922,115.6875
1623,1923,117.35
1624,1924,119.0125
1625,1925,120.67500000000001
1626,1926,122.3375
1627,1927,124.0
1628,1928,123.55882352941177
1629,1929,123.11764705882354
1630,1930,122.67647058823529
1631,1931,122.23529411764706
1632,1932,121.79411764705883
1633,1933,121.3529411764706
1634,1934,120.91176470588235
1635,1935,120.47058823529412
1636,1936,120.02941176470588
1637,1937,119.58823529411765
1638,1938,119.1470588235294
1639,1939,118.70588235294117
1640,1940,118.26470588235294
1641,1941,117.82352941176471
1642,1942,117.38235294117646
1643,1943,116.94117647058823
1644,1944,116.5
1645,1945,116.05882352941177
1646,1946,115.61764705882354
1647,1947,115.17647058823529
1648,1948,114.73529411764706
1649,1949,114.29411764705883
1650,1950,113.8529411764706
1651,1951,113.41176470588235
1652,1952,112.97058823529412
1653,1953,112.52941176470588
1654,1954,112.08823529411765
1655,1955,111.64705882352942
1656,1956,111.20588235294117
1657,1957,110.76470588235294
1658,1958,110.32352941176471
1659,1959,109.88235294117646
1660,1960,109.44117647058823
1661,1961,109.0
1662,1962,107.97948717948718
1663,1963,106.95897435897436
1664,1964,105.93846153846154
1665,1965,104.91794871794872
1666,1966,103.8974358974359
1667,1967,102.87692307692308
1668,1968,101.85641025641026
1669,1969,100.83589743589744
1670,1970,99.81538461538462
1671,1971,98.7948717948718
1672,1972,97.77435897435898
1673,1973,96.75384615384615
1674,1974,95.73333333333333
1675,1975,94.71282051282051
1676,1976,93.6923076923077
1677,1977,92.67179487179487
1678,1978,91.65128205128205
1679,1979,90.63076923076923
1680,1980,89.61025641025641
1681,1981,88.58974358974359
1682,1982,87.56923076923077
1683,1983,86.54871794871795
1684,1984,85.52820512820513
1685,1985,84.50769230769231
1686,1986,83.48717948717949
1687,1987,82.46666666666667
1688,1988,81.44615384615385
1689,1989,80.42564102564103
1690,1990,79.40512820512821
1691,1991,78.38461538461539
1692,1992,77.36410256410257
1693,1993,76.34358974358975
1694,1994,75.32307692307693
1695,1995,74.3025641025641
1696,1996,73.28205128205128
1697,1997,72.26153846153846
1698,1998,71.24102564102564
1699,1999,70.22051282051282
1700,2000,69.2
1701,2001,68.60975609756098
1702,2002,68.01951219512195
1703,2003,67.42926829268293
1704,2004,66.8390243902439
1705,2005,66.24878048780488
1706,2006,65.65853658536585
1707,2007,65.06829268292682
1708,2008,64.47804878048781
1709,2009,63.88780487804878
1710,2010,63.297560975609755
1711,2011,62.707317073170735
1712,2012,62.11707317073171
1713,2013,61.52682926829269
1714,2014,60.93658536585366
1715,2015,60.34634146341463
1716,2016,59.75609756097561
1717,2017,59.16585365853659
1718,2018,58.57560975609756
1719,2019,57.985365853658536
1720,2020,57.395121951219515
1721,2021,56.80487804878049
1722,2022,56.21463414634147
1723,2023,55.62439024390244
1724,2024,55.03414634146341
1725,2025,54.44390243902439
1726,2026,53.85365853658537
1727,2027,53.26341463414634
1728,2028,52.673170731707316
1729,2029,52.08292682926829
1730,2030,51.49268292682927
1731,2031,50.90243902439025
1732,2032,50.31219512195122
1733,2033,49.72195121951219
1734,2034,49.13170731707317
1735,2035,48.54146341463415
1736,2036,47.951219512195124
1737,2037,47.360975609756096
1738,2038,46.77073170731707
1739,2039,46.18048780487805
1740,2040,45.59024390243903
1741,2041,45.0
1742,2042,44.666666666666664
1743,2043,44.333333333333336
1744,2044,44.0
1745,2045,43.666666666666664
1746,2046,43.333333333333336
1747,2047,43.0
1748,2048,42.666666666666664
1749,2049,42.333333333333336
1750,2050,42.0
1751,2051,41.666666666666664
1752,2052,41.333333333333336
1753,2053,41.0
1754,2054,40.666666666666664
1755,2055,40.333333333333336
1756,2056,40.0
1757,2057,39.666666666666664
1758,2058,39.333333333333336
1759,2059,39.0
1760,2060,38.666666666666664
1761,2061,38.333333333333336
1762,2062,38.0
1763,2063,37.666666666666664
1764,2064,37.333333333333336
1765,2065,37.0
1766,2066,36.66666666666667
1767,2067,36.333333333333336
1768,2068,36.0
1769,2069,35.66666666666667
1770,2070,35.333333333333336
1771,2071,35.0
1772,2072,34.66666666666667
1773,2073,34.333333333333336
1774,2074,34.0
1775,2075,33.66666666666667
1776,2076,33.333333333333336
1777,2077,33.0
1778,2078,32.66666666666667
1779,2079,32.333333333333336
1780,2080,32.0
1781,2081,31.666666666666668
1782,2082,31.333333333333336
1783,2083,31.0
1784,2084,30.835555555555555
1785,2085,30.67111111111111
1786,2086,30.506666666666668
1787,2087,30.342222222222222
1788,2088,30.177777777777777
1789,2089,30.013333333333332
1790,2090,29.84888888888889
1791,2091,29.684444444444445
1792,2092,29.52
1793,2093,29.355555555555554
1794,2094,29.191111111111113
1795,2095,29.026666666666667
1796,2096,28.862222222222222
1797,2097,28.697777777777777
1798,2098,28.533333333333335
1799,2099,28.36888888888889
1800,2100,28.204444444444444
1801,2101,28.04
1802,2102,27.875555555555557
1803,2103,27.711111111111112
1804,2104,27.546666666666667
1805,2105,27.38222222222222
1806,2106,27.21777777777778
1807,2107,27.053333333333335
1808,2108,26.88888888888889
1809,2109,26.724444444444444
1810,2110,26.560000000000002
1811,2111,26.395555555555557
1812,2112,26.23111111111111
1813,2113,26.066666666666666
1814,2114,25.90222222222222
1815,2115,25.73777777777778
1816,2116,25.573333333333334
1817,2117,25.40888888888889
1818,2118,25.244444444444447
1819,2119,25.080000000000002
1820,2120,24.915555555555557
1821,2121,24.75111111111111
1822,2122,24.586666666666666
1823,2123,24.422222222222224
1824,2124,24.25777777777778
1825,2125,24.093333333333334
1826,2126,23.928888888888892
1827,2127,23.764444444444447
1828,2128,23.6
1829,2129,23.53857142857143
1830,2130,23.47714285714286
1831,2131,23.415714285714287
1832,2132,23.354285714285716
1833,2133,23.292857142857144
1834,2134,23.231428571428573
1835,2135,23.17
1836,2136,23.10857142857143
1837,2137,23.04714285714286
1838,2138,22.985714285714288
1839,2139,22.924285714285716
1840,2140,22.862857142857145
1841,2141,22.801428571428573
1842,2142,22.740000000000002
1843,2143,22.67857142857143
1844,2144,22.61714285714286
1845,2145,22.555714285714288
1846,2146,22.494285714285716
1847,2147,22.432857142857145
1848,2148,22.371428571428574
1849,2149,22.310000000000002
1850,2150,22.24857142857143
1851,2151,22.18714285714286
1852,2152,22.125714285714288
1853,2153,22.064285714285717
1854,2154,22.002857142857145
1855,2155,21.941428571428574
1856,2156,21.880000000000003
1857,2157,21.81857142857143
1858,2158,21.75714285714286
1859,2159,21.69571428571429
1860,2160,21.634285714285717
1861,2161,21.572857142857146
1862,2162,21.511428571428574
1863,2163,21.450000000000003
1864,2164,21.38857142857143
1865,2165,21.32714285714286
1866,2166,21.26571428571429
1867,2167,21.204285714285717
1868,2168,21.142857142857146
1869,2169,21.081428571428575
1870,2170,21.02
1871,2171,20.958571428571428
1872,2172,20.897142857142857
1873,2173,20.835714285714285
1874,2174,20.774285714285714
1875,2175,20.712857142857143
1876,2176,20.65142857142857
1877,2177,20.59
1878,2178,20.52857142857143
1879,2179,20.467142857142857
1880,2180,20.405714285714286
1881,2181,20.344285714285714
1882,2182,20.282857142857143
1883,2183,20.22142857142857
1884,2184,20.16
1885,2185,20.09857142857143
1886,2186,20.037142857142857
1887,2187,19.975714285714286
1888,2188,19.914285714285715
1889,2189,19.852857142857143
1890,2190,19.791428571428572
1891,2191,19.73
1892,2192,19.66857142857143
1893,2193,19.607142857142858
1894,2194,19.545714285714286
1895,2195,19.484285714285715
1896,2196,19.422857142857143
1897,2197,19.361428571428572
1898,2198,19.3
1899,2199,19.349333333333334
1900,2200,19.398666666666667
1901,2201,19.448
1902,2202,19.497333333333334
1903,2203,19.546666666666667
1904,2204,19.596
1905,2205,19.645333333333333
1906,2206,19.694666666666667
1907,2207,19.744
1908,2208,19.793333333333333
1909,2209,19.842666666666666
1910,2210,19.892
1911,2211,19.941333333333333
1912,2212,19.990666666666666
1913,2213,20.04
1914,2214,20.089333333333332
1915,2215,20.138666666666666
1916,2216,20.188000000000002
1917,2217,20.237333333333336
1918,2218,20.28666666666667
1919,2219,20.336000000000002
1920,2220,20.385333333333335
1921,2221,20.43466666666667
1922,2222,20.484
1923,2223,20.533333333333335
1924,2224,20.582666666666668
1925,2225,20.632
1926,2226,20.681333333333335
1927,2227,20.730666666666668
1928,2228,20.78
1929,2229,20.829333333333334
1930,2230,20.878666666666668
1931,2231,20.928
1932,2232,20.977333333333334
1933,2233,21.026666666666667
1934,2234,21.076
1935,2235,21.125333333333334
1936,2236,21.174666666666667
1937,2237,21.224
1938,2238,21.273333333333333
1939,2239,21.322666666666667
1940,2240,21.372
1941,2241,21.421333333333333
1942,2242,21.470666666666666
1943,2243,21.52
1944,2244,21.569333333333333
1945,2245,21.618666666666666
1946,2246,21.668
1947,2247,21.717333333333332
1948,2248,21.766666666666666
1949,2249,21.816
1950,2250,21.865333333333332
1951,2251,21.91466666666667
1952,2252,21.964
1953,2253,22.013333333333335
1954,2254,22.062666666666665
1955,2255,22.112000000000002
1956,2256,22.161333333333335
1957,2257,22.21066666666667
1958,2258,22.26
1959,2259,22.309333333333335
1960,2260,22.358666666666668
1961,2261,22.408
1962,2262,22.457333333333334
1963,2263,22.506666666666668
1964,2264,22.556
1965,2265,22.605333333333334
1966,2266,22.654666666666667
1967,2267,22.704
1968,2268,22.753333333333334
1969,2269,22.802666666666667
1970,2270,22.852
1971,2271,22.901333333333334
1972,2272,22.950666666666667
1973,2273,23.0
1974,2274,23.118867924528303
1975,2275,23.237735849056605
1976,2276,23.356603773584904
1977,2277,23.475471698113207
1978,2278,23.59433962264151
1979,2279,23.713207547169812
1980,2280,23.832075471698115
1981,2281,23.950943396226414
1982,2282,24.069811320754717
1983,2283,24.18867924528302
1984,2284,24.307547169811322
1985,2285,24.426415094339625
1986,2286,24.545283018867924
1987,2287,24.664150943396226
1988,2288,24.78301886792453
1989,2289,24.90188679245283
1990,2290,25.02075471698113
1991,2291,25.139622641509433
1992,2292,25.258490566037736
1993,2293,25.37735849056604
1994,2294,25.49622641509434
1995,2295,25.615094339622644
1996,2296,25.733962264150943
1997,2297,25.852830188679246
1998,2298,25.971698113207548
1999,2299,26.09056603773585
2000,2300,26.20943396226415
2001,2301,26.328301886792453
2002,2302,26.447169811320755
2003,2303,26.566037735849058
2004,2304,26.68490566037736
2005,2305,26.80377358490566
2006,2306,26.922641509433962
2007,2307,27.041509433962265
2008,2308,27.160377358490567
2009,2309,27.279245283018867
2010,2310,27.39811320754717
2011,2311,27.516981132075472
2012,2312,27.635849056603774
2013,2313,27.754716981132077
2014,2314,27.87358490566038
2015,2315,27.99245283018868
2016,2316,28.11132075471698
2017,2317,28.230188679245284
2018,2318,28.349056603773587
2019,2319,28.467924528301886
2020,2320,28.58679245283019
2021,2321,28.70566037735849
2022,2322,28.824528301886794
2023,2323,28.943396226415096
2024,2324,29.0622641509434
2025,2325,29.181132075471698
2026,2326,29.3
2027,2327,29.527272727272727
2028,2328,29.754545454545454
2029,2329,29.981818181818184
2030,2330,30.20909090909091
2031,2331,30.436363636363637
2032,2332,30.663636363636364
2033,2333,30.89090909090909
2034,2334,31.118181818181817
2035,2335,31.345454545454544
2036,2336,31.572727272727274
2037,2337,31.8
2038,2338,32.02727272727273
2039,2339,32.25454545454546
2040,2340,32.481818181818184
2041,2341,32.70909090909091
2042,2342,32.93636363636364
2043,2343,33.163636363636364
2044,2344,33.39090909090909
2045,2345,33.61818181818182
2046,2346,33.845454545454544
2047,2347,34.07272727272727
2048,2348,34.3
2049,2349,34.527272727272724
2050,2350,34.75454545454545
2051,2351,34.981818181818184
2052,2352,35.20909090909091
2053,2353,35.43636363636364
2054,2354,35.663636363636364
2055,2355,35.89090909090909
2056,2356,36.11818181818182
2057,2357,36.345454545454544
2058,2358,36.57272727272727
2059,2359,36.8
2060,2360,37.027272727272724
2061,2361,37.25454545454545
2062,2362,37.481818181818184
2063,2363,37.709090909090904
2064,2364,37.93636363636364
2065,2365,38.163636363636364
2066,2366,38.39090909090909
2067,2367,38.61818181818182
2068,2368,38.845454545454544
2069,2369,39.07272727272727
2070,2370,39.3
2071,2371,39.527272727272724
2072,2372,39.75454545454545
2073,2373,39.98181818181818
2074,2374,40.209090909090904
2075,2375,40.43636363636364
2076,2376,40.66363636363636
2077,2377,40.89090909090909
2078,2378,41.11818181818182
2079,2379,41.345454545454544
2080,2380,41.57272727272727
2081,2381,41.8
2082,2382,42.17413793103448
2083,2383,42.54827586206896
2084,2384,42.922413793103445
2085,2385,43.29655172413793
2086,2386,43.67068965517241
2087,2387,44.04482758620689
2088,2388,44.418965517241375
2089,2389,44.79310344827586
2090,2390,45.16724137931034
2091,2391,45.54137931034482
2092,2392,45.915517241379305
2093,2393,46.28965517241379
2094,2394,46.66379310344827
2095,2395,47.03793103448275
2096,2396,47.412068965517236
2097,2397,47.78620689655172
2098,2398,48.1603448275862
2099,2399,48.53448275862068
2100,2400,48.90862068965517
2101,2401,49.282758620689656
2102,2402,49.65689655172414
2103,2403,50.03103448275862
2104,2404,50.4051724137931
2105,2405,50.779310344827586
2106,2406,51.15344827586207
2107,2407,51.52758620689655
2108,2408,51.90172413793103
2109,2409,52.275862068965516
2110,2410,52.65
2111,2411,53.02413793103448
2112,2412,53.398275862068964
2113,2413,53.772413793103446
2114,2414,54.14655172413793
2115,2415,54.52068965517241
2116,2416,54.894827586206894
2117,2417,55.26896551724138
2118,2418,55.64310344827586
2119,2419,56.01724137931034
2120,2420,56.391379310344824
2121,2421,56.76551724137931
2122,2422,57.13965517241379
2123,2423,57.51379310344827
2124,2424,57.88793103448276
2125,2425,58.262068965517244
2126,2426,58.63620689655173
2127,2427,59.01034482758621
2128,2428,59.38448275862069
2129,2429,59.758620689655174
2130,2430,60.13275862068966
2131,2431,60.50689655172414
2132,2432,60.88103448275862
2133,2433,61.255172413793105
2134,2434,61.62931034482759
2135,2435,62.00344827586207
2136,2436,62.37758620689655
2137,2437,62.751724137931035
2138,2438,63.12586206896552
2139,2439,63.5
2140,2440,64.02786885245902
2141,2441,64.55573770491803
2142,2442,65.08360655737705
2143,2443,65.61147540983606
2144,2444,66.13934426229508
2145,2445,66.6672131147541
2146,2446,67.19508196721311
2147,2447,67.72295081967214
2148,2448,68.25081967213114
2149,2449,68.77868852459017
2150,2450,69.30655737704919
2151,2451,69.8344262295082
2152,2452,70.36229508196722
2153,2453,70.89016393442623
2154,2454,71.41803278688525
2155,2455,71.94590163934427
2156,2456,72.47377049180328
2157,2457,73.0016393442623
2158,2458,73.52950819672131
2159,2459,74.05737704918033
2160,2460,74.58524590163935
2161,2461,75.11311475409836
2162,2462,75.64098360655738
2163,2463,76.16885245901639
2164,2464,76.69672131147541
2165,2465,77.22459016393444
2166,2466,77.75245901639344
2167,2467,78.28032786885247
2168,2468,78.80819672131148
2169,2469,79.3360655737705
2170,2470,79.86393442622952
2171,2471,80.39180327868853
2172,2472,80.91967213114754
2173,2473,81.44754098360656
2174,2474,81.97540983606558
2175,2475,82.5032786885246
2176,2476,83.03114754098361
2177,2477,83.55901639344262
2178,2478,84.08688524590164
2179,2479,84.61475409836066
2180,2480,85.14262295081967
2181,2481,85.6704918032787
2182,2482,86.1983606557377
2183,2483,86.72622950819672
2184,2484,87.25409836065575
2185,2485,87.78196721311475
2186,2486,88.30983606557378
2187,2487,88.83770491803278
2188,2488,89.3655737704918
2189,2489,89.89344262295083
2190,2490,90.42131147540984
2191,2491,90.94918032786886
2192,2492,91.47704918032787
2193,2493,92.00491803278689
2194,2494,92.53278688524591
2195,2495,93.06065573770492
2196,2496,93.58852459016394
2197,2497,94.11639344262295
2198,2498,94.64426229508197
2199,2499,95.172131147541
2200,2500,95.7
2201,2501,95.9390625
2202,2502,96.17812500000001
2203,2503,96.4171875
2204,2504,96.65625
2205,2505,96.8953125
2206,2506,97.134375
2207,2507,97.37343750000001
2208,2508,97.6125
2209,2509,97.8515625
2210,2510,98.090625
2211,2511,98.3296875
2212,2512,98.56875000000001
2213,2513,98.8078125
2214,2514,99.046875
2215,2515,99.2859375
2216,2516,99.525
2217,2517,99.76406250000001
2218,2518,100.003125
2219,2519,100.2421875
2220,2520,100.48125
2221,2521,100.7203125
2222,2522,100.959375
2223,2523,101.1984375
2224,2524,101.4375
2225,2525,101.6765625
2226,2526,101.915625
2227,2527,102.1546875
2228,2528,102.39375
2229,2529,102.6328125
2230,2530,102.871875
2231,2531,103.1109375
2232,2532,103.35
2233,2533,103.5890625
2234,2534,103.828125
2235,2535,104.0671875
2236,2536,104.30625
2237,2537,104.5453125
2238,2538,104.784375
2239,2539,105.0234375
2240,2540,105.2625
2241,2541,105.5015625
2242,2542,105.740625
2243,2543,105.9796875
2244,2544,106.21875
2245,2545,106.4578125
2246,2546,106.696875
2247,2547,106.9359375
2248,2548,107.175
2249,2549,107.4140625
2250,2550,107.653125
2251,2551,107.8921875
2252,2552,108.13125
2253,2553,108.3703125
2254,2554,108.609375
2255,2555,108.8484375
2256,2556,109.0875
2257,2557,109.3265625
2258,2558,109.565625
2259,2559,109.8046875
2260,2560,110.04375
2261,2561,110.2828125
2262,2562,110.521875
2263,2563,110.7609375
2264,2564,111.0
2265,2565,112.20588235294117
2266,2566,113.41176470588235
2267,2567,114.61764705882354
2268,2568,115.82352941176471
2269,2569,117.02941176470588
2270,2570,118.23529411764706
2271,2571,119.44117647058823
2272,2572,120.6470588235294
2273,2573,121.85294117647058
2274,2574,123.05882352941177
2275,2575,124.26470588235294
2276,2576,125.47058823529412
2277,2577,126.67647058823529
2278,2578,127.88235294117646
2279,2579,129.08823529411765
2280,2580,130.2941176470588
2281,2581,131.5
2282,2582,132.70588235294116
2283,2583,133.91176470588235
2284,2584,135.11764705882354
2285,2585,136.3235294117647
2286,2586,137.52941176470588
2287,2587,138.73529411764707
2288,2588,139.94117647058823
2289,2589,141.14705882352942
2290,2590,142.35294117647058
2291,2591,143.55882352941177
2292,2592,144.76470588235293
2293,2593,145.97058823529412
2294,2594,147.1764705882353
2295,2595,148.38235294117646
2296,2596,149.58823529411765
2297,2597,150.7941176470588
2298,2598,152.0
2299,2599,153.20588235294116
2300,2600,154.41176470588235
2301,2601,155.61764705882354
2302,2602,156.8235294117647
2303,2603,158.02941176470588
2304,2604,159.23529411764707
2305,2605,160.44117647058823
2306,2606,161.6470588235294
2307,2607,162.85294117647058
2308,2608,164.05882352941177
2309,2609,165.26470588235293
2310,2610,166.47058823529412
2311,2611,167.6764705882353
2312,2612,168.88235294117646
2313,2613,170.08823529411765
2314,2614,171.2941176470588
2315,2615,172.5
2316,2616,173.70588235294116
2317,2617,174.91176470588235
2318,2618,176.11764705882354
2319,2619,177.3235294117647
2320,2620,178.52941176470588
2321,2621,179.73529411764707
2322,2622,180.94117647058823
2323,2623,182.1470588235294
2324,2624,183.35294117647058
2325,2625,184.55882352941177
2326,2626,185.76470588235293
2327,2627,186.97058823529412
2328,2628,188.1764705882353
2329,2629,189.38235294117646
2330,2630,190.58823529411762
2331,2631,191.79411764705884
2332,2632,193.0
